time (s)	det(V)
424500.367179	-0.384351	
424500.369188	-0.402083	
424500.371196	-0.422123	
424500.373194	-0.441786	
424500.375194	-0.466064	
424500.377195	-0.492712	
424500.379195	-0.517335	
424500.383203	-0.544825	
424500.385203	-0.600464	
424500.387202	-0.630604	
424500.389206	-0.660873	
424500.391206	-0.691633	
424500.393205	-0.726462	
424500.395205	-0.759755	
424500.397204	-0.793092	
424500.399205	-0.828484	
424500.403203	-0.862328	
424500.407204	-0.934138	
424500.409206	-1.003685	
424500.411204	-1.036059	
424500.413206	-1.069107	
424500.415203	-1.100635	
424500.419203	-1.129981	
424500.421205	-1.186903	
424500.423205	-1.210276	
424500.427204	-1.230051	
424500.429205	-1.256214	
424500.431206	-1.266383	
424500.433211	-1.274291	
424500.435209	-1.272723	
424500.439209	-1.274370	
424500.443208	-1.260247	
424500.445211	-1.232387	
424500.447211	-1.209251	
424500.449210	-1.182938	
424500.451210	-1.150470	
424500.453211	-1.115854	
424500.457209	-1.079844	
424500.459211	-0.999185	
424500.461209	-0.953863	
424500.465210	-0.904965	
424500.467210	-0.803085	
424500.469211	-0.748334	
424500.471211	-0.695877	
424500.473211	-0.641545	
424500.477209	-0.586191	
424500.481208	-0.476418	
424500.483210	-0.370662	
424500.485211	-0.309631	
424500.487211	-0.255946	
424500.489211	-0.200194	
424500.491210	-0.143031	
424500.493210	-0.090701	
424500.497209	-0.036405	
424500.501209	0.074228	
424500.503211	0.184511	
424500.505212	0.235874	
424500.507211	0.286886	
424500.509210	0.336631	
424500.511211	0.386818	
424500.513211	0.431470	
424500.515210	0.478533	
424500.519211	0.527621	
424500.523210	0.621409	
424500.525211	0.712515	
424500.527211	0.753952	
424500.529210	0.796472	
424500.531213	0.839876	
424500.535216	0.879673	
424500.537219	0.957058	
424500.539219	0.991897	
424500.543217	1.026909	
424500.545219	1.088925	
424500.547219	1.117514	
424500.549220	1.142072	
424500.551218	1.166522	
424500.553218	1.186999	
424500.555223	1.201908	
424500.559219	1.215421	
424500.561217	1.229587	
424500.563219	1.234522	
424500.565219	1.236070	
424500.567218	1.234465	
424500.569218	1.229700	
424500.571218	1.221653	
424500.573219	1.209525	
424500.575219	1.192861	
424500.577219	1.171797	
424500.581219	1.151101	
424500.583219	1.098669	
424500.585217	1.072394	
424500.587219	1.039035	
424500.589219	1.005964	
424500.591219	0.972595	
424500.593217	0.934392	
424500.597217	0.898569	
424500.599219	0.823929	
424500.603219	0.789848	
424500.605218	0.716982	
424500.607218	0.682310	
424500.609218	0.645825	
424500.611219	0.613281	
424500.615217	0.581744	
424500.617220	0.517283	
424500.619219	0.489677	
424500.623218	0.459192	
424500.625218	0.410482	
424500.627219	0.388640	
424500.629225	0.366286	
424500.631225	0.345479	
424500.633224	0.323925	
424500.637223	0.304760	
424500.641224	0.265808	
424500.643225	0.232629	
424500.645226	0.219034	
424500.647224	0.205173	
424500.649225	0.192298	
424500.653224	0.181362	
424500.655225	0.157137	
424500.657224	0.147325	
424500.661223	0.136515	
424500.663225	0.121618	
424500.667223	0.107034	
424500.669225	0.099951	
424500.673222	0.093377	
424500.675224	0.080208	
424500.679224	0.070223	
424500.681225	0.065084	
424500.683225	0.060803	
424500.685223	0.059909	
424500.687225	0.054244	
424500.689223	0.050816	
424500.691224	0.045860	
424500.695225	0.039646	
424500.699223	0.036104	
424500.701225	0.034047	
424500.705223	0.026626	
424500.707225	0.023826	
424500.711223	0.020105	
424500.713224	0.016276	
424500.715224	0.014090	
424500.719224	0.012310	
424500.721225	0.011663	
424500.723225	0.009651	
424500.725226	0.009580	
424500.727226	0.004418	
424500.729231	0.004805	
424500.733227	0.002636	
424500.737228	0.002480	
424500.739229	0.000181	
424500.741230	0.000707	
424500.743227	-0.003608	
424500.745229	-0.002800	
424500.749226	-0.002095	
424500.751229	-0.003002	
424500.753229	-0.005705	
424500.757229	-0.006832	
424500.759228	-0.006851	
424500.761228	-0.005692	
424500.763229	-0.006734	
424500.765229	-0.006962	
424500.767229	-0.007602	
424500.769228	-0.007318	
424500.773229	-0.008346	
424500.775230	-0.008718	
424500.777229	-0.011035	
424500.779228	-0.008554	
424500.781228	-0.007348	
424500.783232	-0.008647	
424500.785228	-0.006097	
424500.787229	-0.008558	
424500.789228	-0.009768	
424500.793231	-0.009065	
424500.795233	-0.009914	
424500.797232	-0.008261	
424500.799232	-0.008877	
424500.801233	-0.005516	
424500.803231	-0.007434	
424500.805234	-0.008192	
424500.809231	-0.007537	
424500.811232	-0.010436	
424500.813231	-0.009183	
424500.815232	-0.008652	
424500.817232	-0.007290	
424500.819233	-0.004643	
424500.821233	-0.005296	
424500.823233	-0.007489	
424500.825234	-0.004152	
424500.829239	-0.008805	
424500.833239	-0.007420	
424500.835241	-0.004640	
424500.837241	-0.004643	
424500.839241	-0.005140	
424500.841240	-0.005073	
424500.843241	-0.006456	
424500.845241	-0.005364	
424500.847241	-0.006878	
424500.851240	-0.007629	
424500.855241	-0.006194	
424500.857241	-0.004562	
424500.859241	-0.006402	
424500.861241	-0.006479	
424500.863241	-0.006248	
424500.867239	-0.005162	
424500.869240	-0.005216	
424500.871241	-0.006500	
424500.875241	-0.006197	
424500.877240	-0.006763	
424500.879241	-0.005294	
424500.881241	-0.005372	
424500.883240	-0.005645	
424500.885240	-0.002601	
424500.887249	-0.005872	
424500.893249	-0.005823	
424500.895248	-0.005403	
424500.897249	-0.003927	
424500.899248	-0.005306	
424500.901249	-0.001872	
424500.905247	-0.003413	
424500.907248	-0.006562	
424500.909248	-0.005838	
424500.913248	-0.006482	
424500.915247	-0.004074	
424500.917248	-0.004335	
424500.921247	-0.003433	
424500.923249	-0.004552	
424500.927248	-0.004034	
424500.931247	-0.005326	
424500.933249	-0.003075	
424500.935249	-0.000773	
424500.937248	-0.002298	
424500.939248	-0.002752	
424500.943246	-0.001124	
424500.945249	-0.004352	
424500.947248	-0.004460	
424500.951248	-0.004288	
424500.953249	-0.001294	
424500.955249	-0.001837	
424500.957250	-0.001849	
424500.959248	-0.001199	
424500.961249	-0.002194	
424500.963248	-0.002709	
424500.967257	-0.002824	
424500.969256	-0.000795	
424500.971257	-0.000693	
424500.973256	-0.001027	
424500.975257	0.000188	
424500.977256	-0.002765	
424500.979257	-0.000907	
424500.983255	-0.001169	
424500.985256	-0.001094	
424500.987256	-0.001622	
424500.989257	-0.001672	
424500.991260	0.001155	
424500.993265	-0.001851	
424500.995264	-0.000936	
424500.997265	-0.000044	
424500.999265	-0.000631	
424501.003264	0.000577	
424501.007263	-0.002135	
424501.009265	-0.000905	
424501.011265	-0.001220	
424501.013267	0.000450	
424501.015264	0.000089	
424501.017265	0.000260	
424501.019265	0.001627	
424501.021264	-0.000816	
424501.025263	-0.000753	
424501.029266	-0.003282	
424501.031266	0.001353	
424501.033267	-0.000654	
424501.035265	0.002080	
424501.037265	0.001219	
424501.041262	0.000973	
424501.043264	-0.002924	
424501.045266	-0.000780	
424501.049265	-0.000287	
424501.051264	0.001920	
424501.053264	0.003193	
424501.055264	0.001592	
424501.057264	0.002216	
424501.059264	0.001384	
424501.063263	-0.001327	
424501.067265	0.000869	
424501.069264	0.003762	
424501.071265	0.002295	
424501.073263	0.001964	
424501.075264	0.003148	
424501.079262	0.000807	
424501.081264	0.001321	
424501.083265	0.000330	
424501.087264	0.002561	
424501.089264	0.003955	
424501.091265	0.003970	
424501.093265	0.001264	
424501.095264	0.003070	
424501.097264	0.003288	
424501.101265	0.001441	
424501.105265	0.002057	
424501.107267	0.004752	
424501.109267	0.003543	
424501.111266	0.003244	
424501.113267	0.003968	
424501.117265	0.005380	
424501.119267	0.004339	
424501.121267	0.002276	
424501.125266	0.003494	
424501.127266	0.003622	
424501.129273	0.004301	
424501.131275	0.004477	
424501.133273	0.004217	
424501.135272	0.007051	
424501.137271	0.004623	
424501.141277	0.003846	
424501.143277	0.002519	
424501.145276	0.004310	
424501.147277	0.006708	
424501.149278	0.004236	
424501.151276	0.005724	
424501.153277	0.006569	
424501.157276	0.005242	
424501.159275	0.003595	
424501.161277	0.003219	
424501.163276	0.004330	
424501.165287	0.006035	
424501.167285	0.006279	
424501.169284	0.008181	
424501.171284	0.007575	
424501.173285	0.006877	
424501.177282	0.007370	
424501.181283	0.004714	
424501.183285	0.005840	
424501.185285	0.008822	
424501.187284	0.007670	
424501.189285	0.007527	
424501.191285	0.008140	
424501.193285	0.007258	
424501.195284	0.006361	
424501.199287	0.005827	
424501.203286	0.007116	
424501.205286	0.008413	
424501.207286	0.008383	
424501.209287	0.008429	
424501.211286	0.007365	
424501.215285	0.009448	
424501.217286	0.006748	
424501.219287	0.008667	
424501.223286	0.007772	
424501.225288	0.010649	
424501.227286	0.007539	
424501.229289	0.009664	
424501.231289	0.010467	
424501.233293	0.008686	
424501.235297	0.011502	
424501.239295	0.009277	
424501.241295	0.009928	
424501.243294	0.008966	
424501.245295	0.010896	
424501.247294	0.010395	
424501.249293	0.010494	
424501.251293	0.011841	
424501.255292	0.010766	
424501.257295	0.009553	
424501.259294	0.008942	
424501.261295	0.008489	
424501.263299	0.010996	
424501.265295	0.010689	
424501.267295	0.010471	
424501.269294	0.012010	
424501.271294	0.010931	
424501.275294	0.010940	
424501.279293	0.006048	
424501.281295	0.009517	
424501.283294	0.008911	
424501.285294	0.011282	
424501.287293	0.009290	
424501.289294	0.008966	
424501.291294	0.009652	
424501.293295	0.003969	
424501.297294	0.004484	
424501.301293	0.004569	
424501.303294	0.005312	
424501.305295	0.005100	
424501.307295	0.004171	
424501.309295	0.002532	
424501.313292	0.000557	
424501.315294	-0.002680	
424501.317295	-0.004265	
424501.321294	-0.002679	
424501.323294	-0.004810	
424501.325295	-0.005960	
424501.327294	-0.011105	
424501.329297	-0.009969	
424501.331295	-0.012128	
424501.333296	-0.016227	
424501.337297	-0.015809	
424501.339296	-0.021908	
424501.341297	-0.021058	
424501.343297	-0.024971	
424501.345297	-0.027753	
424501.347297	-0.029364	
424501.349296	-0.032770	
424501.353296	-0.035439	
424501.355297	-0.043486	
424501.357297	-0.047883	
424501.359296	-0.051106	
424501.361297	-0.055593	
424501.363296	-0.059493	
424501.365297	-0.064429	
424501.367296	-0.069930	
424501.369297	-0.073347	
424501.373294	-0.082228	
424501.377295	-0.095290	
424501.379297	-0.111037	
424501.381296	-0.120161	
424501.383297	-0.130656	
424501.385296	-0.137257	
424501.387297	-0.148761	
424501.389296	-0.160836	
424501.391297	-0.173576	
424501.395303	-0.188896	
424501.399305	-0.215181	
424501.401307	-0.244651	
424501.403306	-0.262542	
424501.405305	-0.281748	
424501.407305	-0.300836	
424501.411303	-0.321198	
424501.413305	-0.367965	
424501.415305	-0.391235	
424501.419304	-0.415449	
424501.421306	-0.461135	
424501.423305	-0.491382	
424501.425306	-0.520340	
424501.427308	-0.554511	
424501.429304	-0.584714	
424501.433306	-0.620146	
424501.437306	-0.686220	
424501.439306	-0.758044	
424501.441307	-0.793201	
424501.443307	-0.831750	
424501.445307	-0.867739	
424501.449305	-0.903659	
424501.451307	-0.975823	
424501.453307	-1.009138	
424501.457305	-1.043049	
424501.459306	-1.101117	
424501.461308	-1.131530	
424501.463307	-1.157015	
424501.465306	-1.179901	
424501.469306	-1.202109	
424501.473304	-1.234566	
424501.475308	-1.252248	
424501.477307	-1.259626	
424501.479307	-1.259624	
424501.481306	-1.258798	
424501.483307	-1.255933	
424501.487305	-1.249090	
424501.489306	-1.230360	
424501.491306	-1.214447	
424501.495306	-1.196732	
424501.497307	-1.145418	
424501.499306	-1.116983	
424501.501307	-1.085626	
424501.503307	-1.050765	
424501.507305	-1.016437	
424501.509306	-0.940498	
424501.511306	-0.899218	
424501.515306	-0.854903	
424501.517307	-0.762731	
424501.519307	-0.712833	
424501.521308	-0.668380	
424501.523306	-0.617313	
424501.525311	-0.566183	
424501.527310	-0.518202	
424501.531311	-0.465920	
424501.533313	-0.368794	
424501.535313	-0.313430	
424501.537312	-0.261004	
424501.539312	-0.210691	
424501.541313	-0.157341	
424501.543313	-0.107939	
424501.547311	-0.056112	
424501.551310	0.047039	
424501.553313	0.152950	
424501.555313	0.202740	
424501.557315	0.253588	
424501.559315	0.305071	
424501.561312	0.353104	
424501.563312	0.402291	
424501.565312	0.447206	
424501.569319	0.495502	
424501.573317	0.594540	
424501.575319	0.691890	
424501.577319	0.735475	
424501.579319	0.779862	
424501.581318	0.824535	
424501.585316	0.866564	
424501.587318	0.947142	
424501.589319	0.980713	
424501.593318	1.016116	
424501.595318	1.076980	
424501.597317	1.103105	
424501.599320	1.127001	
424501.601319	1.147854	
424501.603317	1.162994	
424501.607322	1.175619	
424501.611322	1.194158	
424501.613323	1.199836	
424501.615322	1.198913	
424501.617323	1.192754	
424501.619323	1.188099	
424501.623321	1.175143	
424501.625321	1.145672	
424501.627324	1.125509	
424501.631323	1.106402	
424501.633323	1.060746	
424501.635322	1.035094	
424501.637323	1.007648	
424501.639323	0.977661	
424501.641322	0.947545	
424501.645322	0.913880	
424501.649322	0.852517	
424501.651322	0.792070	
424501.653322	0.760737	
424501.655322	0.728353	
424501.657322	0.697404	
424501.661320	0.666789	
424501.663323	0.604262	
424501.665322	0.575631	
424501.669323	0.546315	
424501.671323	0.495737	
424501.673323	0.469597	
424501.675322	0.446288	
424501.677322	0.419273	
424501.679322	0.400575	
424501.681325	0.381094	
424501.685326	0.359554	
424501.687327	0.323067	
424501.689327	0.304369	
424501.691326	0.287609	
424501.693326	0.270284	
424501.695326	0.253997	
424501.697327	0.239388	
424501.701325	0.225904	
424501.703326	0.199203	
424501.705327	0.186424	
424501.709327	0.175604	
424501.711327	0.153092	
424501.713327	0.145204	
424501.715327	0.136248	
424501.717326	0.127749	
424501.719326	0.121142	
424501.721326	0.111702	
424501.723327	0.102473	
424501.727326	0.096805	
424501.729328	0.085045	
424501.731328	0.080613	
424501.733327	0.073209	
424501.735327	0.070215	
424501.737327	0.065932	
424501.739327	0.060705	
424501.741327	0.055441	
424501.745326	0.049897	
424501.747327	0.044549	
424501.749327	0.040916	
424501.751326	0.039577	
424501.753328	0.038284	
424501.755327	0.034025	
424501.757327	0.031360	
424501.759327	0.030388	
424501.761326	0.025777	
424501.765330	0.023510	
424501.769333	0.019719	
424501.771333	0.018612	
424501.773335	0.018364	
424501.775332	0.016217	
424501.777333	0.012074	
424501.781332	0.013345	
424501.783332	0.009030	
424501.785333	0.009295	
424501.789331	0.008464	
424501.791333	0.008275	
424501.793333	0.005772	
424501.795333	0.004656	
424501.797332	0.005200	
424501.799332	0.004129	
424501.801331	0.002926	
424501.805331	0.002065	
424501.807332	0.002171	
424501.809333	0.003345	
424501.811333	0.000658	
424501.813333	0.001719	
424501.815333	0.000843	
424501.817334	0.000862	
424501.821331	0.002763	
424501.823333	-0.001407	
424501.825333	-0.000154	
424501.827333	-0.003275	
424501.829333	-0.001389	
424501.831333	-0.000072	
424501.833333	-0.001233	
424501.835333	0.001292	
424501.837332	-0.000007	
424501.839332	-0.000764	
424501.843333	-0.002419	
424501.847332	-0.003969	
424501.849333	-0.001798	
424501.851333	-0.002291	
424501.853332	-0.001234	
424501.855332	-0.001332	
424501.859330	-0.001682	
424501.861332	-0.006109	
424501.863333	-0.003677	
424501.867331	-0.004895	
424501.869334	0.000086	
424501.871332	-0.002186	
424501.873334	-0.002783	
424501.875332	-0.000444	
424501.877332	-0.003135	
424501.881337	-0.003965	
424501.885336	-0.004722	
424501.887337	-0.000470	
424501.889336	-0.002216	
424501.891336	-0.001290	
424501.893337	-0.002029	
424501.897335	-0.002431	
424501.899337	-0.003774	
424501.901335	-0.003685	
424501.905336	-0.002272	
424501.907337	-0.001531	
424501.909336	-0.001274	
424501.911336	-0.003516	
424501.913336	-0.002365	
424501.915338	-0.002071	
424501.917336	-0.004880	
424501.921342	-0.001113	
424501.923343	-0.002415	
424501.925347	-0.001125	
424501.927351	-0.002033	
424501.929349	-0.001299	
424501.931351	-0.001846	
424501.933350	-0.001249	
424501.937349	-0.001077	
424501.941349	-0.003045	
424501.943351	-0.003177	
424501.945353	-0.001341	
424501.947350	-0.000518	
424501.949350	-0.001747	
424501.951350	-0.001760	
424501.953349	0.000417	
424501.957348	-0.002061	
424501.961350	-0.002386	
424501.963350	-0.002642	
424501.965351	-0.000521	
424501.967351	-0.001853	
424501.969349	0.000838	
424501.971350	-0.001059	
424501.973351	-0.001601	
424501.975351	-0.000504	
424501.979355	-0.004469	
424501.983354	-0.003148	
424501.985354	0.000219	
424501.987355	0.000674	
424501.989355	-0.000703	
424501.991354	0.000022	
424501.995352	-0.001142	
424501.997353	-0.001536	
424501.999354	-0.002346	
424502.003355	-0.001965	
424502.005354	0.000046	
424502.007355	0.000082	
424502.009355	-0.000246	
424502.011356	-0.002279	
424502.013354	-0.002196	
424502.017356	-0.001757	
424502.021356	0.000096	
424502.023359	-0.000535	
424502.025359	0.001466	
424502.027356	-0.002016	
424502.029356	-0.001303	
424502.033354	-0.000393	
424502.035357	-0.000431	
424502.037357	-0.000025	
424502.041356	-0.000954	
424502.043356	0.000443	
424502.045355	-0.001016	
424502.047355	0.000269	
424502.049357	0.000271	
424502.051356	0.000497	
424502.055356	-0.000238	
424502.057357	-0.000781	
424502.059356	0.000055	
424502.061357	-0.000701	
424502.063356	0.000238	
424502.065357	0.000327	
424502.067357	0.000293	
424502.069357	0.003025	
424502.071355	0.000737	
424502.075354	-0.000723	
424502.079356	-0.002888	
424502.081357	0.001412	
424502.083356	0.001786	
424502.085357	0.001041	
424502.087357	0.000822	
424502.091355	0.000280	
424502.093357	-0.001101	
424502.095356	-0.001339	
424502.099357	-0.000499	
424502.101357	0.001136	
424502.103357	0.002165	
424502.105357	0.000894	
424502.107357	0.001780	
424502.109356	0.002233	
424502.111357	-0.002495	
424502.115357	-0.001299	
424502.117356	-0.001216	
424502.119357	0.004405	
424502.121357	0.001633	
424502.123357	0.000832	
424502.125360	0.001359	
424502.127365	0.000821	
424502.131363	0.000601	
424502.133364	0.000214	
424502.135365	0.000549	
424502.137364	0.000433	
424502.141365	0.001547	
424502.143365	0.001733	
424502.145364	0.000563	
424502.147367	0.001996	
424502.151363	0.001742	
424502.153364	0.001874	
424502.155364	0.000910	
424502.157365	0.000400	
424502.159366	0.003448	
424502.161364	-0.000550	
424502.163365	0.002374	
424502.165365	0.002159	
424502.167365	0.001856	
424502.171363	0.004564	
424502.175363	0.000497	
424502.177364	-0.000076	
424502.179365	0.001807	
424502.181365	0.002841	
424502.183365	0.002323	
424502.185364	0.004119	
424502.187365	0.002966	
424502.189364	0.002049	
424502.193363	0.001626	
424502.197365	-0.000876	
424502.199365	0.002652	
424502.201365	0.003186	
424502.203365	0.004062	
424502.205365	0.002232	
424502.209363	0.003213	
424502.211364	-0.001355	
424502.213365	-0.000703	
424502.217364	0.001227	
424502.219365	0.005291	
424502.223363	0.003411	
424502.225367	0.003485	
424502.227365	0.000512	
424502.231373	0.001616	
424502.233373	0.000747	
424502.235372	0.002397	
424502.237373	0.004510	
424502.239373	0.002492	
424502.241373	0.003224	
424502.243372	0.003535	
424502.245372	0.002330	
424502.247372	0.003692	
424502.251378	0.002183	
424502.255378	0.003008	
424502.257379	0.003300	
424502.259379	0.005341	
424502.261377	0.001784	
424502.263379	0.003430	
424502.267376	0.004028	
424502.269378	0.004020	
424502.271379	0.003104	
424502.275378	0.002888	
424502.277380	0.002271	
424502.279379	0.003477	
424502.281379	0.003502	
424502.283378	0.003506	
424502.285378	0.004533	
424502.289378	0.003674	
424502.293377	0.002103	
424502.295379	0.002065	
424502.297380	0.003915	
424502.299378	0.002822	
424502.301378	0.002551	
424502.305376	0.004165	
424502.307379	0.001179	
424502.309377	0.001372	
424502.313377	-0.001687	
424502.315379	0.001697	
424502.317379	0.000219	
424502.319378	0.002432	
424502.321380	0.001392	
424502.323379	-0.000484	
424502.325381	-0.002181	
424502.329378	-0.004197	
424502.331378	-0.004369	
424502.333379	-0.004691	
424502.335377	-0.004195	
424502.337379	-0.005255	
424502.339379	-0.006971	
424502.341380	-0.008080	
424502.345379	-0.009624	
424502.347378	-0.012984	
424502.349379	-0.013881	
424502.353377	-0.016083	
424502.355379	-0.017576	
424502.357379	-0.019998	
424502.359379	-0.022534	
424502.361379	-0.025440	
