num crossings	time (s)	maj axis (mm)	min axis (mm)	theta (rad )	slope (V/s)
10771	428256.980159	0.000000	26.548293	-0.925163	3.958526
10773	428259.046225	35.847575	-13.860608	-0.154073	3.007373
10775	428261.159179	36.685531	-14.423790	-0.201128	2.745195
10777	428263.242931	37.438277	-14.523010	-0.193062	2.808902
10779	428265.311491	37.425405	-14.578018	-0.183340	2.472041
10781	428267.386032	36.908393	-13.927108	-0.168383	2.269486
10783	428269.473759	36.218905	-18.934062	-0.109724	2.814736
10785	428271.557404	38.176144	14.567155	-0.269759	3.129707
10787	428273.654072	36.251719	-13.865130	-0.163609	2.823900
10789	428275.730018	37.323125	-14.207687	-0.177022	3.081652
10791	428277.813842	36.605019	-13.922634	-0.163790	2.837412
10793	428279.897129	37.267690	-14.132943	-0.191542	2.516068
10795	428281.975617	37.752673	-14.204142	-0.202347	3.060183
10797	428284.070016	38.512088	13.878996	-0.273085	2.824656
10799	428286.163888	37.327535	-13.732514	-0.164688	2.960671
10801	428288.253412	45.901667	-19.473387	-0.153355	2.447833
10803	428290.320660	38.019338	-14.210224	-0.185306	3.012442
10805	428292.401476	36.908471	-13.998753	-0.196903	3.094271
10807	428294.497000	36.928188	-18.137786	-0.123183	2.564910
10809	428296.590865	38.973539	13.722831	-0.262687	2.632822
10811	428298.654569	39.419917	13.991898	-0.265463	3.008205
10813	428300.736742	37.519868	-13.777013	-0.190458	2.733607
10815	428302.832164	36.654052	-17.779788	-0.118827	2.958835
10817	428304.931934	39.200485	13.841922	-0.258137	2.725625
10819	428307.005527	38.304199	-13.642958	-0.175694	3.173642
10821	428309.078796	37.731194	-15.486027	-0.189161	2.840704
10823	428311.154643	37.397459	-13.664673	-0.202014	3.166421
10825	428313.242482	39.880410	13.423485	-0.264195	3.108932
10827	428315.330460	38.104052	-13.454406	-0.183153	2.742568
10829	428317.414246	38.149895	-13.401825	-0.180437	3.082744
10831	428319.496906	37.753151	-12.882887	-0.157408	2.766788
10833	428321.579960	38.417853	-13.292224	-0.177625	2.836808
10835	428323.659454	38.818000	-13.564808	-0.190839	3.168884
10837	428325.747176	38.078060	-12.729660	-0.172364	3.407576
10839	428327.841542	37.374253	-12.771556	-0.152210	3.194085
10841	428329.938724	38.881033	-16.596688	-0.131983	3.001054
10843	428332.023977	38.804917	-13.230001	-0.195428	3.092228
10845	428334.094185	39.157606	-13.007409	-0.182100	3.069621
10847	428336.166249	38.359764	-12.454187	-0.146821	3.130715
10849	428338.254614	38.545045	-13.463808	-0.192486	3.322702
10851	428340.355188	40.176533	12.799739	-0.287572	3.246592
10853	428342.443663	40.529298	12.723252	-0.273443	3.173340
10855	428344.520684	40.415370	12.888061	-0.264278	3.051838
10857	428346.591550	39.215977	-12.778146	-0.173614	3.160826
10859	428348.672836	39.137775	-13.197392	-0.194147	3.359797
10861	428350.758104	38.447984	-12.301720	-0.169158	3.479549
10863	428352.850364	40.094275	-14.706179	-0.200517	3.554527
10865	428354.941580	38.900507	-12.682533	-0.184039	3.146138
10867	428357.030980	38.920904	-12.759923	-0.192370	3.338425
10869	428359.112863	38.593212	-12.413031	-0.172108	3.694619
10871	428361.199357	38.298862	-12.329233	-0.167563	3.185014
10873	428363.282198	39.628385	-12.799774	-0.195541	3.447939
10875	428365.360805	40.989676	12.384796	-0.274471	3.279843
10877	428367.441844	39.199967	-12.356422	-0.176099	3.215843
10879	428369.517464	39.904596	-12.493125	-0.196213	3.535435
10881	428371.600988	39.200952	-12.379448	-0.171797	3.555643
10883	428373.684932	40.820356	-17.377922	-0.140950	3.325732
10885	428375.782173	40.580246	12.195088	-0.270238	3.176797
10887	428377.875281	40.085309	-12.734165	-0.200706	3.398082
10889	428379.957975	39.661294	-12.771438	-0.197159	3.541441
10891	428382.033605	41.552621	12.263708	-0.268432	3.525026
10893	428384.109213	40.835047	-12.343353	-0.209144	3.561132
10895	428386.192809	41.622305	12.022404	-0.273669	3.140169
10897	428388.277569	40.009687	-12.309216	-0.202462	3.565259
10899	428390.371202	39.799137	-12.019758	-0.182601	2.997990
10901	428392.459958	39.726970	-11.804245	-0.168616	3.702431
10903	428394.551517	39.686415	-13.091453	-0.220422	3.224048
10905	428396.635200	40.193201	-11.932980	-0.184307	3.963741
10907	428398.718159	39.849278	-11.633444	-0.169353	3.617385
10909	428400.799102	40.161410	-11.957129	-0.187539	3.598507
10911	428402.882511	39.494173	-11.655947	-0.175996	3.649951
10913	428404.969692	39.575722	-11.654371	-0.178233	3.601574
10915	428407.053906	40.530954	-11.907741	-0.200042	3.663185
10917	428409.141446	40.571149	-11.993677	-0.208161	3.704397
10919	428411.225496	42.675256	11.714760	-0.272539	3.786048
10921	428413.309647	40.663419	-11.672925	-0.183599	3.577074
10923	428415.387082	40.331143	-11.583404	-0.186907	3.830641
10925	428417.464380	41.104628	-11.677538	-0.194398	3.803816
10927	428419.542264	31.538239	-15.680044	-0.073215	3.621756
10929	428421.621146	40.754442	-11.225798	-0.185680	3.479020
10931	428423.708742	40.922373	-11.895877	-0.202082	3.779979
10933	428425.794223	40.618718	-11.389639	-0.187111	3.964465
10935	428427.892566	40.795007	-11.546599	-0.200489	3.841560
10937	428429.979813	40.676178	-11.535256	-0.214436	4.069530
10939	428432.068068	40.439131	-11.445491	-0.207302	3.708230
10941	428434.146271	41.970165	-11.352217	-0.188959	3.920469
10943	428436.225439	45.893722	-16.729081	-0.146340	3.730811
10945	428438.303786	41.496353	-11.284663	-0.190495	3.708327
10947	428440.386761	40.786390	-10.918706	-0.172694	3.634796
10949	428442.469025	41.078751	-11.045699	-0.181055	3.775736
10951	428444.552091	40.958838	-11.060519	-0.183796	3.960126
10953	428446.636983	41.212384	-15.988403	-0.143325	3.904731
10955	428448.721766	41.459559	-11.026973	-0.186673	3.705692
10957	428450.807658	42.251800	-11.198029	-0.201714	4.160526
10959	428452.894456	42.763269	10.910585	-0.276061	3.784171
10961	428454.979321	42.793177	11.061814	-0.274142	3.948910
10963	428457.072080	41.663324	-10.701991	-0.186294	3.571186
10965	428459.158929	40.941556	-10.587364	-0.171366	4.246069
10967	428461.247260	42.241835	-14.933745	-0.201323	4.136999
10969	428463.330013	41.341441	-11.302101	-0.211311	4.192205
10971	428465.408240	41.572688	-10.685794	-0.190609	4.132886
10973	428467.486629	41.675048	-10.779732	-0.195109	4.269904
10975	428469.561695	42.020976	-12.915089	-0.214837	4.461811
10977	428471.651054	41.973270	-10.875734	-0.204222	2.449597
10979	428473.736724	41.982094	-10.751639	-0.206571	3.934960
10981	428475.821578	42.065001	-11.009885	-0.212142	4.176019
10983	428477.909541	44.270731	10.808963	-0.279560	3.982895
10985	428479.996297	45.563547	12.364680	-0.244963	4.086764
10987	428482.081183	43.464225	-10.930187	-0.217947	4.238944
10989	428484.168877	44.252311	10.709752	-0.274840	3.970594
10991	428486.251941	42.510618	-10.412274	-0.193223	4.205740
10993	428488.335251	42.442962	-10.263580	-0.186694	4.263307
10995	428490.420515	41.917547	-10.283750	-0.187100	4.070412
10997	428492.500305	42.703883	-15.830966	-0.139738	4.469479
10999	428494.583123	42.416278	-10.744644	-0.210522	4.072167
11001	428496.664446	44.843603	10.444210	-0.273383	4.493805
11003	428498.745689	42.993770	-10.342838	-0.197016	4.374052
11005	428500.830816	39.313947	-14.366437	-0.152755	4.418384
11007	428502.915319	44.672594	10.236088	-0.275336	4.285957
11009	428505.005398	42.195674	-10.047223	-0.195277	4.451384
11011	428507.093530	52.855962	-12.877519	-0.202919	4.795016
11013	428509.190592	43.108720	-10.380046	-0.213998	4.062122
11015	428511.269247	43.235839	-10.132720	-0.212330	5.742992
11017	428513.355891	43.892258	-13.732034	-0.182357	5.120735
11019	428515.436615	43.539512	-10.340754	-0.231210	4.369793
11021	428517.520065	44.052978	-10.471851	-0.228899	4.353113
11023	428519.601843	45.850124	11.225678	-0.265719	4.370211
11025	428521.683987	43.879395	-10.095399	-0.206451	4.251563
11027	428523.768280	43.541108	-9.825800	-0.196630	4.423697
11029	428525.851912	44.460994	-10.224001	-0.218522	4.755713
11031	428527.938470	44.160776	-10.364142	-0.227374	4.330737
11033	428530.027947	43.211572	-9.710203	-0.200137	4.300727
11035	428532.114686	43.661679	-13.485784	-0.201307	4.506293
11037	428534.198688	43.886503	-9.685049	-0.209276	4.441861
11039	428536.284374	44.033637	-9.952629	-0.208869	4.565580
11041	428538.362180	44.255672	-9.613729	-0.198133	4.728191
11043	428540.441242	43.839319	-9.718036	-0.204666	4.569819
11045	428542.519950	44.056873	-9.845517	-0.217991	4.549538
11047	428544.599816	37.444035	-12.500896	-0.207256	4.665911
11049	428546.685192	43.467602	-9.771039	-0.202285	4.673888
11051	428548.769176	44.168512	-9.739080	-0.216475	4.684335
11053	428550.855529	49.892135	-13.489254	-0.198089	4.422981
11055	428552.938069	45.008632	-9.740851	-0.226711	5.166686
11057	428555.023736	44.311794	-9.583718	-0.207207	4.304278
11059	428557.109881	44.390448	-9.422230	-0.202576	4.700853
11061	428559.190086	45.121008	-13.463867	-0.181777	4.711176
11063	428561.274622	44.633004	-9.564093	-0.212646	4.304544
11065	428563.355921	44.726293	-9.543046	-0.213328	5.016926
11067	428565.440529	51.428648	-13.373853	-0.218628	4.678808
11069	428567.526320	44.973469	-9.771688	-0.229050	4.698596
11071	428569.610428	44.165143	-8.998125	-0.205132	5.339585
11073	428571.701393	44.334640	-12.531704	-0.217256	4.906446
11075	428573.787931	47.473306	9.748048	-0.292018	4.487369
11077	428575.878327	44.344501	-9.286664	-0.208430	4.956805
11079	428577.966185	45.841544	-13.617977	-0.173566	5.018695
11081	428580.050539	45.368342	-9.342961	-0.235989	5.233042
11083	428582.134929	45.551450	-9.241395	-0.214303	4.692306
11085	428584.219905	44.810295	-12.549496	-0.221472	4.964427
11087	428586.302147	45.441415	-9.134590	-0.211794	4.870276
11089	428588.386871	45.877730	-9.292333	-0.229737	4.794768
11091	428590.470809	47.874946	9.258590	-0.289368	4.986423
11093	428592.555768	48.100385	9.303293	-0.288239	4.728343
11095	428594.641292	45.992979	-8.944879	-0.215466	5.028670
11097	428596.727251	45.604135	-8.841009	-0.207669	4.993041
11099	428598.812083	46.506506	-9.280278	-0.240640	4.899124
